          Temp        Press
01           0         4.14
02          10         8.52
03          20        16.31
04          30        32.18
05          40        64.62
06          50        98.76
07          60       151.13
08          70       224.74
09          80       341.35
10          85       423.36
11          90       522.78
12          95       674.32
13         100       782.04
14         105       920.01
